k,no_index: time(s), r_tree_index: time(s)
1,0.312,0.458
5,0.244,0.239
10,0.203,0.199
20,0.17,0.229
30,0.184,0.206
50,0.187,0.187
100,0.189,0.21
500,0.327,0.305
1000,0.448,0.366
5000,1.324,1.177
10000,2.537,2.135
20000,4.39,4.088
30000,6.38,6.117
50000,10.181,9.992
75000,9.933,14.695