k,no_index: time(s), r_tree_index: time(s)
1,0.324,0.482
5,0.221,0.252
10,0.219,0.231
20,0.217,0.202
30,0.184,0.216
50,0.216,0.196
100,0.197,0.201
500,0.308,0.282
1000,0.429,0.382
5000,1.38,1.255
10000,2.538,2.235
20000,4.339,4.247
30000,6.556,6.346
50000,10.402,10.3
75000,10.414,15.257