k,no_index: time(s), r_tree_index: time(s)
1,0.16,1.1
5,0.244,0.214
10,0.195,0.207
20,0.22,0.272
30,0.238,0.231
50,0.175,0.19
100,0.202,0.189
500,0.289,0.303
1000,0.361,0.398
5000,1.475,1.201
10000,2.695,2.329
20000,4.396,4.337
30000,6.786,6.473
50000,11.275,10.902
75000,11.038,15.711